# Matter power spectrum P(k) at redshift z=0
# for k=1.04798e-05 to 13.8999 h/Mpc,
# number of wavenumbers equal to 548
#    1:k (h/Mpc)              2:P (Mpc/h)^3        
       1.047983747043e-05       5.207625966241e+01 
       2.346584621151e-05       1.129057074894e+02 
       3.649811905084e-05       1.725331658552e+02 
       4.961229565527e-05       2.316607874986e+02 
       6.284461339920e-05       2.906804539398e+02 
       7.623223575444e-05       3.498817206251e+02 
       8.981359132659e-05       4.095095145950e+02 
       1.036287281159e-04       4.697878018519e+02 
       1.177196876145e-04       5.309316132467e+02 
       1.321309033878e-04       5.931542795627e+02 
       1.469096287877e-04       6.566724073926e+02 
       1.621063983792e-04       7.217097322921e+02 
       1.777755274566e-04       7.885003601556e+02 
       1.939756536129e-04       8.572917358744e+02 
       2.107703235930e-04       9.283475019665e+02 
       2.282286274636e-04       1.001950240912e+03 
       2.464258802827e-04       1.078404347888e+03 
       2.654443487100e-04       1.158038799193e+03 
       2.853740160610e-04       1.241210028892e+03 
       3.063133738093e-04       1.328304718266e+03 
       3.283702200727e-04       1.419742473275e+03 
       3.516624357386e-04       1.515978238548e+03 
       3.763186961956e-04       1.617504263136e+03 
       4.024790609047e-04       1.724851363147e+03 
       4.302953643460e-04       1.838589140326e+03 
       4.599313109244e-04       1.959324768119e+03 
       4.915621548512e-04       2.087699792620e+03 
       5.253738268901e-04       2.224384432480e+03 
       5.615613579358e-04       2.370068782980e+03 
       6.003264513986e-04       2.525450289279e+03 
       6.418740805044e-04       2.691217207431e+03 
       6.864080413564e-04       2.868027753114e+03 
       7.341254841215e-04       3.056485388221e+03 
       7.852105731940e-04       3.257110911470e+03 
       8.398275827727e-04       3.470313231005e+03 
       8.981138941243e-04       3.696360799710e+03 
       9.601734900905e-04       3.935356664551e+03 
       1.026071600992e-03       4.187220194721e+03 
       1.095831110998e-03       4.451677877395e+03 
       1.169431173801e-03       4.728264922087e+03 
       1.246808230909e-03       5.016338488831e+03 
       1.327859325000e-03       5.315100542373e+03 
       1.412447320125e-03       5.623600205372e+03 
       1.500407440168e-03       5.940835178921e+03 
       1.591554451200e-03       6.265750432659e+03 
       1.685689843538e-03       6.597254730564e+03 
       1.782608487997e-03       6.934263481899e+03 
       1.882104406311e-03       7.275722134574e+03 
       1.983975467043e-03       7.620624610791e+03 
       2.088026965495e-03       7.968026742720e+03 
       2.194074154057e-03       8.317054257008e+03 
       2.301943855562e-03       8.666907752124e+03 
       2.411475322328e-03       9.016863560109e+03 
       2.522520507197e-03       9.366271526735e+03 
       2.634943899680e-03       9.714552504863e+03 
       2.748622058476e-03       1.006119358931e+04 
       2.863442946843e-03       1.040574363567e+04 
       2.979305153419e-03       1.074780695030e+04 
       3.096117059914e-03       1.108703926772e+04 
       3.213795999560e-03       1.142314156630e+04 
       3.332267436213e-03       1.175585651766e+04 
       3.451464183347e-03       1.208496261930e+04 
       3.571325674291e-03       1.241026773387e+04 
       3.691797289372e-03       1.273161342204e+04 
       3.812829741685e-03       1.304886269286e+04 
       3.934378520620e-03       1.336190468262e+04 
       4.056403390558e-03       1.367064286658e+04 
       4.178867941202e-03       1.397500239127e+04 
       4.301739185498e-03       1.427492350409e+04 
       4.424987200928e-03       1.457035685734e+04 
       4.548584809991e-03       1.486126764324e+04 
       4.672507295903e-03       1.514763103184e+04 
       4.796732149749e-03       1.542942628505e+04 
       4.921238845672e-03       1.570663693159e+04 
       5.046008640949e-03       1.597929594310e+04 
       5.171024398156e-03       1.624738443392e+04 
       5.296270426876e-03       1.651091581730e+04 
       5.421732342708e-03       1.676990433861e+04 
       5.547396941589e-03       1.702436652134e+04 
       5.673252087638e-03       1.727432292893e+04 
       5.799286612991e-03       1.751980050349e+04 
       5.925490228220e-03       1.776081603056e+04 
       6.051853442146e-03       1.799742325817e+04 
       6.178367489963e-03       1.822963645473e+04 
       6.305024268738e-03       1.845749099098e+04 
       6.431816279461e-03       1.868102127584e+04 
       6.558736574906e-03       1.890026690328e+04 
       6.685778712674e-03       1.911526406237e+04 
       6.812936712839e-03       1.932605225698e+04 
       6.940205019699e-03       1.953267331437e+04 
       7.067578467205e-03       1.973516322627e+04 
       7.195052247652e-03       1.993356321852e+04 
       7.322621883311e-03       2.012791766166e+04 
       7.450283200684e-03       2.031826026316e+04 
       7.578032307116e-03       2.050463816713e+04 
       7.705865569515e-03       2.068709185719e+04 
       7.833779594985e-03       2.086567080923e+04 
       7.961771213160e-03       2.104040658238e+04 
       8.089837460085e-03       2.121134457202e+04 
       8.217975563488e-03       2.137852789466e+04 
       8.346182929316e-03       2.154199440603e+04 
       8.474457129392e-03       2.170179483354e+04 
       8.602795890124e-03       2.185796142455e+04 
       8.731197082128e-03       2.201053605576e+04 
       8.859658710710e-03       2.215956669130e+04 
       8.988178907119e-03       2.230508929007e+04 
       9.116755920488e-03       2.244714494813e+04 
       9.245388110433e-03       2.258577599300e+04 
       9.374073940213e-03       2.272101616946e+04 
       9.502811970438e-03       2.285291273543e+04 
       9.631600853249e-03       2.298149979679e+04 
       9.760439326954e-03       2.310681556901e+04 
       9.889326211058e-03       2.322889913246e+04 
       1.001826040168e-02       2.334777894415e+04 
       1.014724086728e-02       2.346350182884e+04 
       1.027626664475e-02       2.357611416683e+04 
       1.040533683578e-02       2.368562723161e+04 
       1.053445060340e-02       2.379210448155e+04 
       1.066360716894e-02       2.389555349016e+04 
       1.079280580904e-02       2.399605250929e+04 
       1.092204585300e-02       2.409359097472e+04 
       1.105132668024e-02       2.418821778550e+04 
       1.118064771796e-02       2.427998133727e+04 
       1.131000843900e-02       2.436891006396e+04 
       1.143940835977e-02       2.445505539756e+04 
       1.156884703847e-02       2.453842381190e+04 
       1.169832407322e-02       2.461905808622e+04 
       1.182783910055e-02       2.469699100952e+04 
       1.195739179382e-02       2.477225178390e+04 
       1.208698186186e-02       2.484488091141e+04 
       1.221660904762e-02       2.491492547080e+04 
       1.234627312702e-02       2.498238979012e+04 
       1.247597390776e-02       2.504731675062e+04 
       1.260571122831e-02       2.510973711505e+04 
       1.273548495693e-02       2.516968684563e+04 
       1.286529499077e-02       2.522719475359e+04 
       1.299514125503e-02       2.528229455282e+04 
       1.312502370219e-02       2.533501481119e+04 
       1.325494231129e-02       2.538538783269e+04 
       1.338489708729e-02       2.543344805730e+04 
       1.351488806041e-02       2.547920588667e+04 
       1.364491528565e-02       2.552272275877e+04 
       1.377497884218e-02       2.556398679574e+04 
       1.390507883297e-02       2.560306056026e+04 
       1.403521538425e-02       2.563995153033e+04 
       1.416538864523e-02       2.567469410647e+04 
       1.429559878765e-02       2.570731885021e+04 
       1.442584600553e-02       2.573784815078e+04 
       1.455613051486e-02       2.576631710815e+04 
       1.468645255331e-02       2.579274079670e+04 
       1.481681238007e-02       2.581714400095e+04 
       1.494721027561e-02       2.583956726448e+04 
       1.507764654154e-02       2.586003099574e+04 
       1.520812150044e-02       2.587855882486e+04 
       1.533863549578e-02       2.589516693475e+04 
       1.546918889180e-02       2.590989975255e+04 
       1.559978207347e-02       2.592276832257e+04 
       1.573041544643e-02       2.593380163772e+04 
       1.586108943695e-02       2.594303716177e+04 
       1.599180449199e-02       2.595046650452e+04 
       1.612256107916e-02       2.595614797094e+04 
       1.625335968678e-02       2.596010230938e+04 
       1.638420082398e-02       2.596231352943e+04 
       1.651508502071e-02       2.596284615468e+04 
       1.664601282789e-02       2.596171865151e+04 
       1.677698481752e-02       2.595877923712e+04 
       1.690800158282e-02       2.595453325779e+04 
       1.703906373834e-02       2.594853609335e+04 
       1.717017192020e-02       2.594096640835e+04 
       1.730132678623e-02       2.593176077386e+04 
       1.743252901618e-02       2.592116627368e+04 
       1.756377931198e-02       2.590897563884e+04 
       1.769507839792e-02       2.589535208598e+04 
       1.782642702097e-02       2.588023989571e+04 
       1.795782595100e-02       2.586370032091e+04 
       1.808927598110e-02       2.584570838082e+04 
       1.822077792788e-02       2.582620789029e+04 
       1.835233263178e-02       2.580542239778e+04 
       1.848394095745e-02       2.578340928809e+04 
       1.861560379404e-02       2.575987920385e+04 
       1.874732205564e-02       2.573512977843e+04 
       1.887909668164e-02       2.570908495749e+04 
       1.901092863712e-02       2.568171367919e+04 
       1.914281891330e-02       2.565298183888e+04 
       1.927476852801e-02       2.562312264066e+04 
       1.940677852606e-02       2.559208461293e+04 
       1.953884997983e-02       2.555977851853e+04 
       1.967098398968e-02       2.552636482050e+04 
       1.980318168450e-02       2.549186045754e+04 
       1.993544422224e-02       2.545608187094e+04 
       2.006777279046e-02       2.541928787761e+04 
       2.020016860693e-02       2.538134388324e+04 
       2.033263292016e-02       2.534234416270e+04 
       2.046516701007e-02       2.530215835456e+04 
       2.059777218858e-02       2.526113183742e+04 
       2.073044980033e-02       2.521888328206e+04 
       2.086320122325e-02       2.517569999133e+04 
       2.099602786938e-02       2.513158643093e+04 
       2.112893118549e-02       2.508642632374e+04 
       2.126191265388e-02       2.504034935060e+04 
       2.139497379313e-02       2.499332117823e+04 
       2.152811615888e-02       2.494548461689e+04 
       2.166134134469e-02       2.489663441024e+04 
       2.179465098284e-02       2.484687753972e+04 
       2.192804674520e-02       2.479637829283e+04 
       2.206153034418e-02       2.474500109621e+04 
       2.219510353357e-02       2.469270326692e+04 
       2.232876810958e-02       2.463963968251e+04 
       2.246252591177e-02       2.458584583748e+04 
       2.259637882409e-02       2.453119907414e+04 
       2.273032877590e-02       2.447576679023e+04 
       2.286437774309e-02       2.441955170346e+04 
       2.299852774914e-02       2.436274050219e+04 
       2.313278086634e-02       2.430505968282e+04 
       2.326713921689e-02       2.424671612617e+04 
       2.340160497418e-02       2.418779095439e+04 
       2.353618036403e-02       2.412794110162e+04 
       2.367086766601e-02       2.406768162908e+04 
       2.380566921471e-02       2.400660727513e+04 
       2.394058740123e-02       2.394501286366e+04 
       2.407562467452e-02       2.388280432690e+04 
       2.421078354286e-02       2.381993483545e+04 
       2.434606657545e-02       2.375645529751e+04 
       2.448147640389e-02       2.369242452452e+04 
       2.461701572385e-02       2.362784418507e+04 
       2.475268729671e-02       2.356276025328e+04 
       2.488849395131e-02       2.349713317707e+04 
       2.502443858573e-02       2.343089771843e+04 
       2.516052416910e-02       2.336426075985e+04 
       2.529675374354e-02       2.329701823625e+04 
       2.543313042609e-02       2.322929739205e+04 
       2.556965741076e-02       2.316118317884e+04 
       2.570633797060e-02       2.309259349435e+04 
       2.584317545991e-02       2.302356548632e+04 
       2.598017331644e-02       2.295410553427e+04 
       2.611733506370e-02       2.288425177180e+04 
       2.625466431342e-02       2.281401422526e+04 
       2.639216476795e-02       2.274326108888e+04 
       2.652984022286e-02       2.267222710262e+04 
       2.666769456960e-02       2.260075687923e+04 
       2.680573179823e-02       2.252890161536e+04 
       2.694395600028e-02       2.245677847517e+04 
       2.708237137167e-02       2.238433274486e+04 
       2.722098221578e-02       2.231145195087e+04 
       2.735979294659e-02       2.223836886277e+04 
       2.749880809198e-02       2.216502282681e+04 
       2.763803229710e-02       2.209124218281e+04 
       2.777747032789e-02       2.201717269314e+04 
       2.791712707475e-02       2.194287767578e+04 
       2.805700755630e-02       2.186828618807e+04 
       2.819711692330e-02       2.179354458359e+04 
       2.833746046275e-02       2.171852749571e+04 
       2.847804360210e-02       2.164325249453e+04 
       2.861887191366e-02       2.156773971203e+04 
       2.875995111912e-02       2.149196931971e+04 
       2.890128709436e-02       2.141607279722e+04 
       2.904288587430e-02       2.133994272653e+04 
       2.918475365806e-02       2.126357962469e+04 
       2.932689681429e-02       2.118710711341e+04 
       2.946932188667e-02       2.111044913467e+04 
       2.961203559973e-02       2.103365364912e+04 
       2.975504486479e-02       2.095663296418e+04 
       2.989835678625e-02       2.087951881309e+04 
       3.004197866805e-02       2.080223210139e+04 
       3.018591802050e-02       2.072485046317e+04 
       3.033018256729e-02       2.064723178103e+04 
       3.047478025289e-02       2.056963537644e+04 
       3.061971925021e-02       2.049185446225e+04 
       3.076500796862e-02       2.041399842740e+04 
       3.091065506231e-02       2.033601050236e+04 
       3.105666943902e-02       2.025803132469e+04 
       3.120306026917e-02       2.017987163578e+04 
       3.134983699535e-02       2.010166938252e+04 
       3.149700934234e-02       2.002342149282e+04 
       3.164458732746e-02       1.994506671238e+04 
       3.179258127152e-02       1.986667629115e+04 
       3.194100181018e-02       1.978826193050e+04 
       3.208985990591e-02       1.970967598800e+04 
       3.223916686049e-02       1.963116005730e+04 
       3.238893432810e-02       1.955262043059e+04 
       3.253917432906e-02       1.947404260949e+04 
       3.268989926423e-02       1.939540982986e+04 
       3.284112193016e-02       1.931674389703e+04 
       3.299285553488e-02       1.923808224117e+04 
       3.314511371465e-02       1.915944771562e+04 
       3.329791055141e-02       1.908074389694e+04 
       3.345126059121e-02       1.900217624562e+04 
       3.360517886357e-02       1.892342299979e+04 
       3.375968090184e-02       1.884476536991e+04 
       3.391478276467e-02       1.876610401642e+04 
       3.407050105862e-02       1.868743780973e+04 
       3.422685296194e-02       1.860890797124e+04 
       3.438385624971e-02       1.853023196978e+04 
       3.454152932036e-02       1.845162126126e+04 
       3.469989122363e-02       1.837314091704e+04 
       3.485896169016e-02       1.829456207095e+04 
       3.501876116271e-02       1.821605249108e+04 
       3.517931082923e-02       1.813763452965e+04 
       3.534063265786e-02       1.805922131339e+04 
       3.550274943392e-02       1.798082303524e+04 
       3.566568479924e-02       1.790245035180e+04 
       3.582946329375e-02       1.782418251742e+04 
       3.599411039965e-02       1.774589734241e+04 
       3.615965258833e-02       1.766767992072e+04 
       3.632611737025e-02       1.758948342414e+04 
       3.649353334788e-02       1.751140265591e+04 
       3.666193027217e-02       1.743331619173e+04 
       3.683133910260e-02       1.735532415054e+04 
       3.700179207122e-02       1.727727606795e+04 
       3.717332275095e-02       1.719933652480e+04 
       3.734596612850e-02       1.712142739060e+04 
       3.751975868227e-02       1.704360079839e+04 
       3.769473846566e-02       1.696577987850e+04 
       3.787094519625e-02       1.688809741789e+04 
       3.804842035131e-02       1.681037983479e+04 
       3.822720727021e-02       1.673267176300e+04 
       3.840735126437e-02       1.665504453011e+04 
       3.858889973534e-02       1.657743603490e+04 
       3.877190230183e-02       1.649990852623e+04 
       3.895641093634e-02       1.642243388138e+04 
       3.914248011260e-02       1.634498009497e+04 
       3.933016696437e-02       1.626750955632e+04 
       3.951953145720e-02       1.619004290360e+04 
       3.971063657393e-02       1.611263862628e+04 
       3.990354851560e-02       1.603530714925e+04 
       4.009833691922e-02       1.595784700380e+04 
       4.029507509396e-02       1.588059178588e+04 
       4.049384027793e-02       1.580321937179e+04 
       4.069471391744e-02       1.572581666832e+04 
       4.089778197134e-02       1.564843745832e+04 
       4.110313524294e-02       1.557107299117e+04 
       4.131086974276e-02       1.549367159402e+04 
       4.152108708546e-02       1.541625616736e+04 
       4.173389492473e-02       1.533874567068e+04 
       4.194940743077e-02       1.526130314195e+04 
       4.216774581522e-02       1.518368878575e+04 
       4.238903890927e-02       1.510606118379e+04 
       4.261342380153e-02       1.502836090027e+04 
       4.284104654300e-02       1.495057250722e+04 
       4.307206292783e-02       1.487273301796e+04 
       4.330663935955e-02       1.479473449101e+04 
       4.354495381418e-02       1.471661221535e+04 
       4.378719691325e-02       1.463841838889e+04 
       4.403357312196e-02       1.456003334696e+04 
       4.428430208996e-02       1.448148313457e+04 
       4.453962015542e-02       1.440270084059e+04 
       4.479978203620e-02       1.432379796410e+04 
       4.506506273644e-02       1.424466333601e+04 
       4.533575970142e-02       1.416523170156e+04 
       4.561219525994e-02       1.408555390442e+04 
       4.589471940025e-02       1.400557507909e+04 
       4.618371293455e-02       1.392528870837e+04 
       4.647959111759e-02       1.384466590678e+04 
       4.678280779774e-02       1.376370311955e+04 
       4.709386019483e-02       1.368222239675e+04 
       4.741329441853e-02       1.360035451193e+04 
       4.774171186514e-02       1.351798147144e+04 
       4.807977666041e-02       1.343503540285e+04 
       4.842822435342e-02       1.335152327147e+04 
       4.878787211304e-02       1.326737716682e+04 
       4.915963073694e-02       1.318247770511e+04 
       4.954451885696e-02       1.309680043806e+04 
       4.994367981807e-02       1.301031530710e+04 
       5.035840182653e-02       1.292285654430e+04 
       5.079014211384e-02       1.283437379431e+04 
       5.124055605524e-02       1.274470593608e+04 
       5.171153242671e-02       1.265372037394e+04 
       5.220523629590e-02       1.256135230121e+04 
       5.272416143712e-02       1.246730445129e+04 
       5.327119465431e-02       1.237145737436e+04 
       5.384969500288e-02       1.227351690507e+04 
       5.446359162363e-02       1.217317489080e+04 
       5.511750470833e-02       1.207008187266e+04 
       5.581689490758e-02       1.196375626574e+04 
       5.656824701529e-02       1.185360681207e+04 
       5.737929346676e-02       1.173894740513e+04 
       5.825928093084e-02       1.161878073182e+04 
       5.921927683695e-02       1.149187090025e+04 
       6.027249795191e-02       1.135667753717e+04 
       6.143461310693e-02       1.121088039476e+04 
       6.272391646350e-02       1.105164633207e+04 
