# Matter power spectrum P(k) at redshift z=0
# for k=1.05216e-05 to 13.9014 h/Mpc,
# number of wavenumbers equal to 548
#    1:k (h/Mpc)              2:P (Mpc/h)^3        
       1.052162017240e-05       5.194528146509e+01 
       2.350772107913e-05       1.123840074321e+02 
       3.654020024128e-05       1.716305314582e+02 
       4.965469873119e-05       2.303800904440e+02 
       6.288745637405e-05       2.890210011821e+02 
       7.627564016474e-05       3.478399913984e+02 
       8.985768334586e-05       4.070795648097e+02 
       1.036736397250e-04       4.669613449535e+02 
       1.177655578436e-04       5.276980038943e+02 
       1.321778796441e-04       5.895003939268e+02 
       1.469578682853e-04       6.525824695459e+02 
       1.621560696842e-04       7.171650585020e+02 
       1.778268121613e-04       7.834790663963e+02 
       1.940287481518e-04       8.517683542013e+02 
       2.108254412086e-04       9.222925133550e+02 
       2.282860003257e-04       9.953295465393e+02 
       2.464857617582e-04       1.071178586449e+03 
       2.655070157703e-04       1.150162607096e+03 
       2.854397717961e-04       1.232631120277e+03 
       3.063825500011e-04       1.318962816481e+03 
       3.284431797490e-04       1.409568081784e+03 
       3.517395755950e-04       1.504891203107e+03 
       3.764004487259e-04       1.605412121426e+03 
       4.025658960250e-04       1.711647492137e+03 
       4.303877902338e-04       1.824150687859e+03 
       4.600298737232e-04       1.943510369022e+03 
       4.916674368247e-04       2.070347179534e+03 
       5.254864425558e-04       2.205308010181e+03 
       5.616819476895e-04       2.349057273828e+03 
       6.004556721769e-04       2.502264788008e+03 
       6.420125931567e-04       2.665589779471e+03 
       6.865564946312e-04       2.839661072504e+03 
       7.342844955267e-04       3.025053696403e+03 
       7.853807074603e-04       3.222262741241e+03 
       8.400093291696e-04       3.431676127025e+03 
       8.983076443675e-04       3.653548072780e+03 
       9.603795189002e-04       3.887976010995e+03 
       1.026290051399e-03       4.134883511165e+03 
       1.096061986160e-03       4.394011312279e+03 
       1.169674336399e-03       4.664918414908e+03 
       1.247063410278e-03       4.946993224823e+03 
       1.328126131146e-03       5.239474107053e+03 
       1.412725263021e-03       5.541449373627e+03 
       1.500695952217e-03       5.851955893140e+03 
       1.591852910682e-03       6.169975658313e+03 
       1.685997597132e-03       6.494452382567e+03 
       1.782924870927e-03       6.824333316473e+03 
       1.882428759257e-03       7.158592662331e+03 
       1.984307149445e-03       7.496250035879e+03 
       2.088365365329e-03       7.836383999533e+03 
       2.194418694421e-03       8.178140093231e+03 
       2.302293998561e-03       8.520736043956e+03 
       2.411830570806e-03       8.863462880517e+03 
       2.522880404826e-03       9.205682909355e+03 
       2.635308029882e-03       9.546827807936e+03 
       2.748990042548e-03       9.886393235418e+03 
       2.863814441592e-03       1.022393594953e+04 
       2.979679848539e-03       1.055906640410e+04 
       3.096494675272e-03       1.089144556431e+04 
       3.214176282509e-03       1.122077870657e+04 
       3.332650158999e-03       1.154681189421e+04 
       3.451849140678e-03       1.186932664786e+04 
       3.571712681076e-03       1.218813294340e+04 
       3.692186178644e-03       1.250307413046e+04 
       3.813220362724e-03       1.281401450390e+04 
       3.934770737248e-03       1.312084421370e+04 
       4.056797079609e-03       1.342346740578e+04 
       4.179262991157e-03       1.372180965245e+04 
       4.302135495260e-03       1.401581135454e+04 
       4.425384678732e-03       1.430542319695e+04 
       4.548983372436e-03       1.459061026516e+04 
       4.672906867087e-03       1.487134386003e+04 
       4.797132660503e-03       1.514761374159e+04 
       4.921640232876e-03       1.541939543197e+04 
       5.046410846930e-03       1.568671258200e+04 
       5.171427370143e-03       1.594955932062e+04 
       5.296674116521e-03       1.620794214164e+04 
       5.422136705660e-03       1.646187639307e+04 
       5.547801937108e-03       1.671137796545e+04 
       5.673657678258e-03       1.695646453520e+04 
       5.799692764211e-03       1.719716619754e+04 
       5.925896908236e-03       1.743350194814e+04 
       6.052260621603e-03       1.766550467673e+04 
       6.178775141736e-03       1.789320938880e+04 
       6.305432367739e-03       1.811664283539e+04 
       6.432224802458e-03       1.833583798570e+04 
       6.559145500367e-03       1.855083561802e+04 
       6.686188020621e-03       1.876166592793e+04 
       6.813346384718e-03       1.896837370284e+04 
       6.940615038267e-03       1.917099712276e+04 
       7.067988816420e-03       1.936956994858e+04 
       7.195462912579e-03       1.956413521563e+04 
       7.323032850035e-03       1.975473304792e+04 
       7.450694456232e-03       1.994139759097e+04 
       7.578443839380e-03       2.012417676104e+04 
       7.706277367195e-03       2.030311105942e+04 
       7.834191647523e-03       2.047824743510e+04 
       7.962183510688e-03       2.064960949435e+04 
       8.090249993374e-03       2.081725418687e+04 
       8.218388323908e-03       2.098121627888e+04 
       8.346595908785e-03       2.114152292910e+04 
       8.474870320347e-03       2.129824425565e+04 
       8.603209285481e-03       2.145140709631e+04 
       8.731610675253e-03       2.160104722978e+04 
       8.860072495387e-03       2.174721089720e+04 
       8.988592877524e-03       2.188992880513e+04 
       9.117170071166e-03       2.202925071229e+04 
       9.245802436271e-03       2.216521141194e+04 
       9.374488436424e-03       2.229785163632e+04 
       9.503226632536e-03       2.242721059570e+04 
       9.632015677038e-03       2.255332272311e+04 
       9.760854308503e-03       2.267622498542e+04 
       9.889741346691e-03       2.279596267435e+04 
       1.001867568796e-02       2.291255678707e+04 
       1.014765630100e-02       2.302605768646e+04 
       1.027668222292e-02       2.313649874615e+04 
       1.040575255559e-02       2.324391001991e+04 
       1.053486646227e-02       2.334833706453e+04 
       1.066402316444e-02       2.344980728445e+04 
       1.079322193894e-02       2.354835768604e+04 
       1.092246211522e-02       2.364402532398e+04 
       1.105174307285e-02       2.373684562226e+04 
       1.118106423920e-02       2.382683491935e+04 
       1.131042508723e-02       2.391406303600e+04 
       1.143982513352e-02       2.399853707760e+04 
       1.156926393637e-02       2.408030181861e+04 
       1.169874109404e-02       2.415937582960e+04 
       1.182825624318e-02       2.423580350732e+04 
       1.195780905728e-02       2.430962867651e+04 
       1.208739924525e-02       2.438086390602e+04 
       1.221702655018e-02       2.444954639287e+04 
       1.234669074807e-02       2.451571242771e+04 
       1.247639164673e-02       2.457938264193e+04 
       1.260612908473e-02       2.464060274563e+04 
       1.273590293043e-02       2.469939622366e+04 
       1.286571308106e-02       2.475579476756e+04 
       1.299555946191e-02       2.480982902084e+04 
       1.312544202555e-02       2.486153187342e+04 
       1.325536075111e-02       2.491092288067e+04 
       1.338531564362e-02       2.495805697021e+04 
       1.351530673340e-02       2.500293197572e+04 
       1.364533407550e-02       2.504559303352e+04 
       1.377539774920e-02       2.508606369793e+04 
       1.390549785752e-02       2.512437662308e+04 
       1.403563452678e-02       2.516055275917e+04 
       1.416580790625e-02       2.519461750591e+04 
       1.429601816775e-02       2.522660507572e+04 
       1.442626550538e-02       2.525654470088e+04 
       1.455655013517e-02       2.528444692916e+04 
       1.468687229490e-02       2.531035464049e+04 
       1.481723224380e-02       2.533427729511e+04 
       1.494763026242e-02       2.535625798213e+04 
       1.507806665244e-02       2.537631683672e+04 
       1.520854173650e-02       2.539447665979e+04 
       1.533905585813e-02       2.541075059669e+04 
       1.546960938166e-02       2.542518679971e+04 
       1.560020269211e-02       2.543779703921e+04 
       1.573083619518e-02       2.544860543255e+04 
       1.586151031723e-02       2.545764764824e+04 
       1.599222550526e-02       2.546492081011e+04 
       1.612298222697e-02       2.547047781527e+04 
       1.625378097073e-02       2.547433898148e+04 
       1.638462224574e-02       2.547649272209e+04 
       1.651550658203e-02       2.547699974923e+04 
       1.664643453057e-02       2.547587791550e+04 
       1.677740666345e-02       2.547313671571e+04 
       1.690842357393e-02       2.546880361336e+04 
       1.703948587665e-02       2.546290108276e+04 
       1.717059420779e-02       2.545546008243e+04 
       1.730174922525e-02       2.544648560444e+04 
       1.743295160886e-02       2.543602143838e+04 
       1.756420206062e-02       2.542407175019e+04 
       1.769550130488e-02       2.541066281310e+04 
       1.782685008870e-02       2.539580971279e+04 
       1.795824918201e-02       2.537954627421e+04 
       1.808969937799e-02       2.536188910779e+04 
       1.822120149331e-02       2.534285522006e+04 
       1.835275636850e-02       2.532246940412e+04 
       1.848436486828e-02       2.530073795375e+04 
       1.861602788189e-02       2.527769941332e+04 
       1.874774632350e-02       2.525337019086e+04 
       1.887952113256e-02       2.522778754101e+04 
       1.901135327425e-02       2.520093456870e+04 
       1.914324373989e-02       2.517285955609e+04 
       1.927519354737e-02       2.514355686047e+04 
       1.940720374161e-02       2.511306949707e+04 
       1.953927539506e-02       2.508139953028e+04 
       1.967140960817e-02       2.504857993541e+04 
       1.980360750994e-02       2.501462343632e+04 
       1.993587025841e-02       2.497957004130e+04 
       2.006819904124e-02       2.494341362652e+04 
       2.020059507628e-02       2.490616862228e+04 
       2.033305961215e-02       2.486787275047e+04 
       2.046559392887e-02       2.482850155958e+04 
       2.059819933848e-02       2.478813758437e+04 
       2.073087718570e-02       2.474678853263e+04 
       2.086362884860e-02       2.470441311279e+04 
       2.099645573930e-02       2.466106161690e+04 
       2.112935930470e-02       2.461679343126e+04 
       2.126234102721e-02       2.457159704103e+04 
       2.139540242552e-02       2.452543985346e+04 
       2.152854505542e-02       2.447840759076e+04 
       2.166177051056e-02       2.443043415372e+04 
       2.179508042336e-02       2.438171508759e+04 
       2.192847646583e-02       2.433210807282e+04 
       2.206196035048e-02       2.428164335472e+04 
       2.219553383128e-02       2.423035623404e+04 
       2.232919870454e-02       2.417827787084e+04 
       2.246295680998e-02       2.412543496210e+04 
       2.259681003169e-02       2.407176657574e+04 
       2.273076029917e-02       2.401741866973e+04 
       2.286480958848e-02       2.396230507246e+04 
       2.299895992324e-02       2.390645811014e+04 
       2.313321337590e-02       2.384987113625e+04 
       2.326757206883e-02       2.379265295299e+04 
       2.340203817558e-02       2.373476348081e+04 
       2.353661392216e-02       2.367613217479e+04 
       2.367130158827e-02       2.361690296070e+04 
       2.380610350874e-02       2.355706667989e+04 
       2.394102207480e-02       2.349650033359e+04 
       2.407605973561e-02       2.343548954123e+04 
       2.421121899967e-02       2.337381737189e+04 
       2.434650243633e-02       2.331154912292e+04 
       2.448191267743e-02       2.324870281630e+04 
       2.461745241882e-02       2.318530671847e+04 
       2.475312442212e-02       2.312141807751e+04 
       2.488893151639e-02       2.305700959179e+04 
       2.502487659991e-02       2.299205835730e+04 
       2.516096264207e-02       2.292658573373e+04 
       2.529719268522e-02       2.286068234346e+04 
       2.543356984663e-02       2.279427093256e+04 
       2.557009732058e-02       2.272740951394e+04 
       2.570677838037e-02       2.266010574594e+04 
       2.584361638056e-02       2.259233361008e+04 
       2.598061475917e-02       2.252421375339e+04 
       2.611777704002e-02       2.245562581193e+04 
       2.625510683509e-02       2.238664843749e+04 
       2.639260784704e-02       2.231727670665e+04 
       2.653028387176e-02       2.224755737793e+04 
       2.666813880099e-02       2.217739844417e+04 
       2.680617662513e-02       2.210695467338e+04 
       2.694440143603e-02       2.203615919699e+04 
       2.708281742995e-02       2.196504034135e+04 
       2.722142891062e-02       2.189355808659e+04 
       2.736024029240e-02       2.182183116391e+04 
       2.749925610352e-02       2.174979326073e+04 
       2.763848098952e-02       2.167742452141e+04 
       2.777791971675e-02       2.160475007781e+04 
       2.791757717599e-02       2.153185323277e+04 
       2.805745838630e-02       2.145869538339e+04 
       2.819756849886e-02       2.138528859870e+04 
       2.833791280112e-02       2.131172302539e+04 
       2.847849672100e-02       2.123785294104e+04 
       2.861932583126e-02       2.116369346039e+04 
       2.876040585411e-02       2.108934517778e+04 
       2.890174266590e-02       2.101489168658e+04 
       2.904334230209e-02       2.094018272765e+04 
       2.918521096234e-02       2.086526463661e+04 
       2.932735501584e-02       2.079020705731e+04 
       2.946978100686e-02       2.071501007007e+04 
       2.961249566051e-02       2.063961595138e+04 
       2.975550588873e-02       2.056404626381e+04 
       2.989881879654e-02       2.048838364194e+04 
       3.004244168855e-02       2.041253533173e+04 
       3.018638207573e-02       2.033657201703e+04 
       3.033064768247e-02       2.026048262911e+04 
       3.047524645398e-02       2.018430916855e+04 
       3.062018656390e-02       2.010799918093e+04 
       3.076547642238e-02       2.003157716877e+04 
       3.091112468442e-02       1.995511596156e+04 
       3.105714025859e-02       1.987854728054e+04 
       3.120353231615e-02       1.980184228532e+04 
       3.135031030061e-02       1.972506897891e+04 
       3.149748393766e-02       1.964831055525e+04 
       3.164506324559e-02       1.957142015942e+04 
       3.179305854619e-02       1.949447593730e+04 
       3.194148047617e-02       1.941754162273e+04 
       3.209033999906e-02       1.934046935623e+04 
       3.223964841776e-02       1.926344915766e+04 
       3.238941738760e-02       1.918633593286e+04 
       3.253965893010e-02       1.910922484727e+04 
       3.269038544739e-02       1.903204349207e+04 
       3.284160973729e-02       1.895487602838e+04 
       3.299334500921e-02       1.887765760457e+04 
       3.314560490080e-02       1.880051697068e+04 
       3.329840349547e-02       1.872329650964e+04 
       3.345175534078e-02       1.864608847519e+04 
       3.360567546786e-02       1.856883484915e+04 
       3.376017941171e-02       1.849169500823e+04 
       3.391528323272e-02       1.841450610285e+04 
       3.407100353922e-02       1.833734198478e+04 
       3.422735751136e-02       1.826017385042e+04 
       3.438436292620e-02       1.818306110443e+04 
       3.454203818419e-02       1.810596423680e+04 
       3.470040233725e-02       1.802888354296e+04 
       3.485947511822e-02       1.795180805435e+04 
       3.501927697224e-02       1.787480255913e+04 
       3.517982908970e-02       1.779779897110e+04 
       3.534115344131e-02       1.772087328160e+04 
       3.550327281510e-02       1.764393098060e+04 
       3.566621085570e-02       1.756709864761e+04 
       3.582999210602e-02       1.749024947185e+04 
       3.599464205136e-02       1.741344801581e+04 
       3.616018716639e-02       1.733666939306e+04 
       3.632665496497e-02       1.725995740698e+04 
       3.649407405320e-02       1.718333053587e+04 
       3.666247418581e-02       1.710671065288e+04 
       3.683188632629e-02       1.703016834897e+04 
       3.700234271088e-02       1.695357961415e+04 
       3.717387691695e-02       1.687711374943e+04 
       3.734652393587e-02       1.680066890341e+04 
       3.752032025097e-02       1.672429483235e+04 
       3.769530392089e-02       1.664795873336e+04 
       3.787151466869e-02       1.657167763524e+04 
       3.804899397748e-02       1.649542410872e+04 
       3.822778519281e-02       1.641918323918e+04 
       3.840793363262e-02       1.634299456330e+04 
       3.858948670541e-02       1.626687570512e+04 
       3.877249403722e-02       1.619079620885e+04 
       3.895700760840e-02       1.611475426134e+04 
       3.914308190094e-02       1.603871489152e+04 
       3.933077405747e-02       1.596274161877e+04 
       3.952014405293e-02       1.588672183588e+04 
       3.971125488021e-02       1.581074949165e+04 
       3.990417275105e-02       1.573485733035e+04 
       4.009896731388e-02       1.565892673175e+04 
       4.029571189012e-02       1.558302464649e+04 
       4.049448373096e-02       1.550712416944e+04 
       4.069536429676e-02       1.543118055231e+04 
       4.089843956138e-02       1.535523898357e+04 
       4.110380034434e-02       1.527933754979e+04 
       4.131154267354e-02       1.520337846564e+04 
       4.152176818235e-02       1.512741108970e+04 
       4.173458454467e-02       1.505135743962e+04 
       4.195010595251e-02       1.497532020828e+04 
       4.216845364108e-02       1.489921428122e+04 
       4.238975646711e-02       1.482303515231e+04 
       4.261415154690e-02       1.474679421510e+04 
       4.284178496153e-02       1.467047214323e+04 
       4.307281253788e-02       1.459405246398e+04 
       4.330740071514e-02       1.451754869700e+04 
       4.354572750826e-02       1.444087465427e+04 
       4.378798358138e-02       1.436410859524e+04 
       4.403437344635e-02       1.428721066668e+04 
       4.428511680406e-02       1.421013430787e+04 
       4.454045004904e-02       1.413284605136e+04 
       4.480062796129e-02       1.405543257926e+04 
       4.506592561363e-02       1.397775055717e+04 
       4.533664052738e-02       1.389980941474e+04 
       4.561309511578e-02       1.382161134872e+04 
       4.589563946101e-02       1.374315292763e+04 
       4.618465448014e-02       1.366433084990e+04 
       4.648055554522e-02       1.358525678904e+04 
       4.678379663626e-02       1.350576512358e+04 
       4.709487512124e-02       1.342584278260e+04 
       4.741433727710e-02       1.334548930374e+04 
       4.774278468959e-02       1.326465320575e+04 
       4.808088169976e-02       1.318325810424e+04 
       4.842936410232e-02       1.310132261514e+04 
       4.878904934729e-02       1.301875483884e+04 
       4.916084855550e-02       1.293544716893e+04 
       4.954578073176e-02       1.285140115349e+04 
       4.994498965325e-02       1.276651910478e+04 
       5.035976402938e-02       1.268067669006e+04 
       5.079156168005e-02       1.259383649975e+04 
       5.124203867190e-02       1.250584378302e+04 
       5.171308459725e-02       1.241658088807e+04 
       5.220686549247e-02       1.232592792036e+04 
       5.272587628721e-02       1.223362812911e+04 
       5.327300517012e-02       1.213956336610e+04 
       5.385161286438e-02       1.204346695767e+04 
       5.446563052827e-02       1.194497840749e+04 
       5.511968080349e-02       1.184382140954e+04 
       5.581922732395e-02       1.173946732779e+04 
       5.657075852001e-02       1.163139133158e+04 
       5.738201125212e-02       1.151884575711e+04 
       5.826223754178e-02       1.140091283003e+04 
       5.922251120933e-02       1.127637852023e+04 
       6.027605646616e-02       1.114363017637e+04 
       6.143855042986e-02       1.100054893935e+04 
       6.272829571713e-02       1.084428064395e+04 
