# Matter power spectrum P(k) at redshift z=0
# for k=1.05216e-05 to 13.9014 h/Mpc,
# number of wavenumbers equal to 548
#    1:k (h/Mpc)              2:P (Mpc/h)^3        
       1.052162017240e-05       5.170916654934e+01 
       2.350772107913e-05       1.118731710347e+02 
       3.654020024128e-05       1.708503926789e+02 
       4.965469873119e-05       2.293329082149e+02 
       6.288745637405e-05       2.877072693589e+02 
       7.627564016474e-05       3.462589005289e+02 
       8.985768334586e-05       4.052292031523e+02 
       1.036736397250e-04       4.648387933869e+02 
       1.177655578436e-04       5.252993766057e+02 
       1.321778796441e-04       5.868208466842e+02 
       1.469578682853e-04       6.496161855967e+02 
       1.621560696842e-04       7.139052173312e+02 
       1.778268121613e-04       7.799177979179e+02 
       1.940287481518e-04       8.478966798704e+02 
       2.108254412086e-04       9.181002746656e+02 
       2.282860003257e-04       9.908053213369e+02 
       2.464857617582e-04       1.066309592884e+03 
       2.655070157703e-04       1.144934595258e+03 
       2.854397717961e-04       1.227028251562e+03 
       3.063825500011e-04       1.312967530967e+03 
       3.284431797490e-04       1.403160954156e+03 
       3.517395755950e-04       1.498050788565e+03 
       3.764004487259e-04       1.598114793618e+03 
       4.025658960250e-04       1.703867276280e+03 
       4.303877902338e-04       1.815859093836e+03 
       4.600298737232e-04       1.934676230989e+03 
       4.916674368247e-04       2.060936510536e+03 
       5.254864425558e-04       2.195283882847e+03 
       5.616819476895e-04       2.338379740729e+03 
       6.004556721769e-04       2.490890857086e+03 
       6.420125931567e-04       2.653473462179e+03 
       6.865564946312e-04       2.826753521997e+03 
       7.342844955267e-04       3.011303452060e+03 
       7.853807074603e-04       3.207616092022e+03 
       8.400093291696e-04       3.416077598604e+03 
       8.983076443675e-04       3.636941035276e+03 
       9.603795189002e-04       3.870303391629e+03 
       1.026290051399e-03       4.116088584544e+03 
       1.096061986160e-03       4.374038531436e+03 
       1.169674336399e-03       4.643714237379e+03 
       1.247063410278e-03       4.924506888068e+03 
       1.328126131146e-03       5.215658310450e+03 
       1.412725263021e-03       5.516260960523e+03 
       1.500695952217e-03       5.825356084673e+03 
       1.591852910682e-03       6.141930302832e+03 
       1.685997597132e-03       6.464932129623e+03 
       1.782924870927e-03       6.793313600727e+03 
       1.882428759257e-03       7.126053581034e+03 
       1.984307149445e-03       7.462176142435e+03 
       2.088365365329e-03       7.800764035547e+03 
       2.194418694421e-03       8.140966684057e+03 
       2.302293998561e-03       8.482005370561e+03 
       2.411830570806e-03       8.823174346283e+03 
       2.522880404826e-03       9.163838816075e+03 
       2.635308029882e-03       9.503433040487e+03 
       2.748990042548e-03       9.841454970920e+03 
       2.863814441592e-03       1.017746337962e+04 
       2.979679848539e-03       1.051107049085e+04 
       3.096494675272e-03       1.084193881063e+04 
       3.214176282509e-03       1.116977495476e+04 
       3.332650158999e-03       1.149432614060e+04 
       3.451849140678e-03       1.181537488158e+04 
       3.571712681076e-03       1.213273201709e+04 
       3.692186178644e-03       1.244624160851e+04 
       3.813220362724e-03       1.275576856729e+04 
       3.934770737248e-03       1.306120354244e+04 
       4.056797079609e-03       1.336245111529e+04 
       4.179262991157e-03       1.365943719617e+04 
       4.302135495260e-03       1.395210245652e+04 
       4.425384678732e-03       1.424039780510e+04 
       4.548983372436e-03       1.452428848581e+04 
       4.672906867087e-03       1.480374592964e+04 
       4.797132660503e-03       1.507875994286e+04 
       4.921640232876e-03       1.534930615855e+04 
       5.046410846930e-03       1.561540811975e+04 
       5.171427370143e-03       1.587705998175e+04 
       5.296674116521e-03       1.607639743308e+04 
       5.422136705660e-03       1.632693349873e+04 
       5.547801937108e-03       1.657303433264e+04 
       5.673657678258e-03       1.681471890834e+04 
       5.799692764211e-03       1.705201850798e+04 
       5.925896908236e-03       1.728495340117e+04 
       6.052260621603e-03       1.751355762515e+04 
       6.178775141736e-03       1.773786730382e+04 
       6.305432367739e-03       1.795791036813e+04 
       6.432224802458e-03       1.817372090225e+04 
       6.559145500367e-03       1.838534071716e+04 
       6.686188020621e-03       1.859280112275e+04 
       6.813346384718e-03       1.879614787517e+04 
       6.940615038267e-03       1.899542016764e+04 
       7.067988816420e-03       1.919065280063e+04 
       7.195462912579e-03       1.938188974793e+04 
       7.323032850035e-03       1.956917208252e+04 
       7.450694456232e-03       1.975253493965e+04 
       7.578443839380e-03       1.993202707760e+04 
       7.706277367195e-03       2.010768989237e+04 
       7.834191647523e-03       2.027957114713e+04 
       7.962183510688e-03       2.044769547290e+04 
       8.090249993374e-03       2.061212050004e+04 
       8.218388323908e-03       2.077288187436e+04 
       8.346595908785e-03       2.093000769418e+04 
       8.474870320347e-03       2.108356856650e+04 
       8.603209285481e-03       2.123359223303e+04 
       8.731610675253e-03       2.138011526930e+04 
       8.860072495387e-03       2.152318458712e+04 
       8.988592877524e-03       2.166283170474e+04 
       9.117170071166e-03       2.179910697592e+04 
       9.245802436271e-03       2.193204592483e+04 
       9.374488436424e-03       2.206168993328e+04 
       9.503226632536e-03       2.218807885749e+04 
       9.632015677038e-03       2.231124780814e+04 
       9.760854308503e-03       2.243123438382e+04 
       9.889741346691e-03       2.254808439813e+04 
       1.001867568796e-02       2.266181961438e+04 
       1.014765630100e-02       2.277249082309e+04 
       1.027668222292e-02       2.288013199059e+04 
       1.040575255559e-02       2.298477378149e+04 
       1.053486646227e-02       2.308646217215e+04 
       1.066402316444e-02       2.318522516878e+04 
       1.079322193894e-02       2.328110025355e+04 
       1.092246211522e-02       2.337412493663e+04 
       1.105174307285e-02       2.346433509624e+04 
       1.118106423920e-02       2.355174772431e+04 
       1.131042508723e-02       2.363643266417e+04 
       1.143982513352e-02       2.371839774207e+04 
       1.156926393637e-02       2.379768800244e+04 
       1.169874109404e-02       2.387432257008e+04 
       1.182825624318e-02       2.394834607753e+04 
       1.195780905728e-02       2.401980257096e+04 
       1.208739924525e-02       2.408870518877e+04 
       1.221702655018e-02       2.415509139079e+04 
       1.234669074807e-02       2.421899772178e+04 
       1.247639164673e-02       2.428044523502e+04 
       1.260612908473e-02       2.433947974560e+04 
       1.273590293043e-02       2.439612508999e+04 
       1.286571308106e-02       2.445041319562e+04 
       1.299555946191e-02       2.450237493650e+04 
       1.312544202555e-02       2.455204338806e+04 
       1.325536075111e-02       2.459943843561e+04 
       1.338531564362e-02       2.464461488862e+04 
       1.351530673340e-02       2.468757114141e+04 
       1.364533407550e-02       2.472835229697e+04 
       1.377539774920e-02       2.476698212312e+04 
       1.390549785752e-02       2.480349335896e+04 
       1.403563452678e-02       2.483790716761e+04 
       1.416580790625e-02       2.487024909093e+04 
       1.429601816775e-02       2.490055335783e+04 
       1.442626550538e-02       2.492884926242e+04 
       1.455655013517e-02       2.495514763197e+04 
       1.468687229490e-02       2.497949120683e+04 
       1.481723224380e-02       2.500188971018e+04 
       1.494763026242e-02       2.502238605738e+04 
       1.507806665244e-02       2.504100048252e+04 
       1.520854173650e-02       2.505775583748e+04 
       1.533905585813e-02       2.507266542637e+04 
       1.546960938166e-02       2.508577710314e+04 
       1.560020269211e-02       2.509710278547e+04 
       1.573083619518e-02       2.510666656814e+04 
       1.586151031723e-02       2.511450393627e+04 
       1.599222550526e-02       2.512061230711e+04 
       1.612298222697e-02       2.512504414796e+04 
       1.625378097073e-02       2.512781974797e+04 
       1.638462224574e-02       2.512892788707e+04 
       1.651550658203e-02       2.512842870774e+04 
       1.664643453057e-02       2.512634002759e+04 
       1.677740666345e-02       2.512267140154e+04 
       1.690842357393e-02       2.511745011115e+04 
       1.703948587665e-02       2.511069850078e+04 
       1.717059420779e-02       2.510244727843e+04 
       1.730174922525e-02       2.509270150764e+04 
       1.743295160886e-02       2.508150454000e+04 
       1.756420206062e-02       2.506886060154e+04 
       1.769550130488e-02       2.505479573084e+04 
       1.782685008870e-02       2.503932491224e+04 
       1.795824918201e-02       2.502248161813e+04 
       1.808969937799e-02       2.500428231767e+04 
       1.822120149331e-02       2.498474386126e+04 
       1.835275636850e-02       2.496389077611e+04 
       1.848436486828e-02       2.494172931861e+04 
       1.861602788189e-02       2.491829757203e+04 
       1.874774632350e-02       2.489361175901e+04 
       1.887952113256e-02       2.486770867249e+04 
       1.901135327425e-02       2.484057164243e+04 
       1.914324373989e-02       2.481224833117e+04 
       1.927519354737e-02       2.478273315995e+04 
       1.940720374161e-02       2.475206857641e+04 
       1.953927539506e-02       2.472025659453e+04 
       1.967140960817e-02       2.468732973622e+04 
       1.980360750994e-02       2.465330052401e+04 
       1.993587025841e-02       2.461820840987e+04 
       2.006819904124e-02       2.458204729575e+04 
       2.020059507628e-02       2.454483136847e+04 
       2.033305961215e-02       2.450659780415e+04 
       2.046559392887e-02       2.446732238942e+04 
       2.059819933848e-02       2.442708653347e+04 
       2.073087718570e-02       2.438589776400e+04 
       2.086362884860e-02       2.434371522200e+04 
       2.099645573930e-02       2.430058846785e+04 
       2.112935930470e-02       2.425657603966e+04 
       2.126234102721e-02       2.421166646389e+04 
       2.139540242552e-02       2.416582744622e+04 
       2.152854505542e-02       2.411914351830e+04 
       2.166177051056e-02       2.407154928823e+04 
       2.179508042336e-02       2.402323773712e+04 
       2.192847646583e-02       2.397406819606e+04 
       2.206196035048e-02       2.392407040040e+04 
       2.219553383128e-02       2.387327907660e+04 
       2.232919870454e-02       2.382172486067e+04 
       2.246295680998e-02       2.376943397947e+04 
       2.259681003169e-02       2.371634610549e+04 
       2.273076029917e-02       2.366260525539e+04 
       2.286480958848e-02       2.360812616597e+04 
       2.299895992324e-02       2.355294061309e+04 
       2.313321337590e-02       2.349704187356e+04 
       2.326757206883e-02       2.344053726998e+04 
       2.340203817558e-02       2.338338705252e+04 
       2.353661392216e-02       2.332552136340e+04 
       2.367130158827e-02       2.326708222824e+04 
       2.380610350874e-02       2.320806043757e+04 
       2.394102207480e-02       2.314833429439e+04 
       2.407605973561e-02       2.308818584286e+04 
       2.421121899967e-02       2.302740056993e+04 
       2.434650243633e-02       2.296604282305e+04 
       2.448191267743e-02       2.290413023819e+04 
       2.461745241882e-02       2.284169057635e+04 
       2.475312442212e-02       2.277878024443e+04 
       2.488893151639e-02       2.271537209059e+04 
       2.502487659991e-02       2.265144330291e+04 
       2.516096264207e-02       2.258701481648e+04 
       2.529719268522e-02       2.252217603533e+04 
       2.543356984663e-02       2.245685042338e+04 
       2.557009732058e-02       2.239109515399e+04 
       2.570677838037e-02       2.232491762701e+04 
       2.584361638056e-02       2.225829194620e+04 
       2.598061475917e-02       2.219133722474e+04 
       2.611777704002e-02       2.212393428694e+04 
       2.625510683509e-02       2.205616072915e+04 
       2.639260784704e-02       2.198801151511e+04 
       2.653028387176e-02       2.191953271800e+04 
       2.666813880099e-02       2.185063318008e+04 
       2.680617662513e-02       2.178146579924e+04 
       2.694440143603e-02       2.171196428226e+04 
       2.708281742995e-02       2.164215648525e+04 
       2.722142891062e-02       2.157200266081e+04 
       2.736024029240e-02       2.150162010182e+04 
       2.749925610352e-02       2.143094305757e+04 
       2.763848098952e-02       2.135995172694e+04 
       2.777791971675e-02       2.128867081751e+04 
       2.791757717599e-02       2.121718260358e+04 
       2.805745838630e-02       2.114544874585e+04 
       2.819756849886e-02       2.107348104298e+04 
       2.833791280112e-02       2.100136856955e+04 
       2.847849672100e-02       2.092896697285e+04 
       2.861932583126e-02       2.085629106354e+04 
       2.876040585411e-02       2.078344027017e+04 
       2.890174266590e-02       2.071049721762e+04 
       2.904334230209e-02       2.063731304152e+04 
       2.918521096234e-02       2.056393348080e+04 
       2.932735501584e-02       2.049042736538e+04 
       2.946978100686e-02       2.041679466439e+04 
       2.961249566051e-02       2.034297810905e+04 
       2.975550588873e-02       2.026899893550e+04 
       2.989881879654e-02       2.019493887174e+04 
       3.004244168855e-02       2.012070595771e+04 
       3.018638207573e-02       2.004637009773e+04 
       3.033064768247e-02       1.997192023540e+04 
       3.047524645398e-02       1.989739788681e+04 
       3.062018656390e-02       1.982275100460e+04 
       3.076547642238e-02       1.974800377744e+04 
       3.091112468442e-02       1.967322828861e+04 
       3.105714025859e-02       1.959835681782e+04 
       3.120353231615e-02       1.952336071209e+04 
       3.135031030061e-02       1.944830729157e+04 
       3.149748393766e-02       1.937327895572e+04 
       3.164506324559e-02       1.929813010561e+04 
       3.179305854619e-02       1.922293814270e+04 
       3.194148047617e-02       1.914776620791e+04 
       3.209033999906e-02       1.907246768552e+04 
       3.223964841776e-02       1.899723092908e+04 
       3.238941738760e-02       1.892191206144e+04 
       3.253965893010e-02       1.884660542136e+04 
       3.269038544739e-02       1.877123919268e+04 
       3.284160973729e-02       1.869589682995e+04 
       3.299334500921e-02       1.862051401509e+04 
       3.314560490080e-02       1.854521846218e+04 
       3.329840349547e-02       1.846985384196e+04 
       3.345175534078e-02       1.839451168510e+04 
       3.360567546786e-02       1.831913445691e+04 
       3.376017941171e-02       1.824388032969e+04 
       3.391528323272e-02       1.816858776587e+04 
       3.407100353922e-02       1.809333009744e+04 
       3.422735751136e-02       1.801807879876e+04 
       3.438436292620e-02       1.794289290021e+04 
       3.454203818419e-02       1.786773326676e+04 
       3.470040233725e-02       1.779260027726e+04 
       3.485947511822e-02       1.771748313566e+04 
       3.501927697224e-02       1.764244627598e+04 
       3.517982908970e-02       1.756742221204e+04 
       3.534115344131e-02       1.749248653497e+04 
       3.550327281510e-02       1.741754552413e+04 
       3.566621085570e-02       1.734272505240e+04 
       3.582999210602e-02       1.726789932507e+04 
       3.599464205136e-02       1.719313264682e+04 
       3.616018716639e-02       1.711840048107e+04 
       3.632665496497e-02       1.704374655355e+04 
       3.649407405320e-02       1.696918945268e+04 
       3.666247418581e-02       1.689465177191e+04 
       3.683188632629e-02       1.682020391729e+04 
       3.700234271088e-02       1.674572288356e+04 
       3.717387691695e-02       1.667137724787e+04 
       3.734652393587e-02       1.659706606211e+04 
       3.752032025097e-02       1.652283911834e+04 
       3.769530392089e-02       1.644866414209e+04 
       3.787151466869e-02       1.637455843136e+04 
       3.804899397748e-02       1.630049508963e+04 
       3.822778519281e-02       1.622645968290e+04 
       3.840793363262e-02       1.615249197380e+04 
       3.858948670541e-02       1.607860996499e+04 
       3.877249403722e-02       1.600478384687e+04 
       3.895700760840e-02       1.593101233536e+04 
       3.914308190094e-02       1.585726117119e+04 
       3.933077405747e-02       1.578359416720e+04 
       3.952014405293e-02       1.570989983604e+04 
       3.971125488021e-02       1.563627236663e+04 
       3.990417275105e-02       1.556274508098e+04 
       4.009896731388e-02       1.548920059229e+04 
       4.029571189012e-02       1.541570636852e+04 
       4.049448373096e-02       1.534223645186e+04 
       4.069536429676e-02       1.526874714500e+04 
       4.089843956138e-02       1.519528441928e+04 
       4.110380034434e-02       1.512188725703e+04 
       4.131154267354e-02       1.504845927820e+04 
       4.152176818235e-02       1.497505083386e+04 
       4.173458454467e-02       1.490158539703e+04 
       4.195010595251e-02       1.482816668378e+04 
       4.216845364108e-02       1.475471122235e+04 
       4.238975646711e-02       1.468121601361e+04 
       4.261415154690e-02       1.460769403325e+04 
       4.284178496153e-02       1.453412772615e+04 
       4.307281253788e-02       1.446050250535e+04 
       4.330740071514e-02       1.438683386262e+04 
       4.354572750826e-02       1.431303788880e+04 
       4.378798358138e-02       1.423919503590e+04 
       4.403437344635e-02       1.416526801226e+04 
       4.428511680406e-02       1.409121300370e+04 
       4.454045004904e-02       1.401699947604e+04 
       4.480062796129e-02       1.394271723208e+04 
       4.506592561363e-02       1.386822644686e+04 
       4.533664052738e-02       1.379354026484e+04 
       4.561309511578e-02       1.371866495582e+04 
       4.589563946101e-02       1.364360155454e+04 
       4.618465448014e-02       1.356825157606e+04 
       4.648055554522e-02       1.349273214754e+04 
       4.678379663626e-02       1.341688338257e+04 
       4.709487512124e-02       1.334069865507e+04 
       4.741433727710e-02       1.326418467214e+04 
       4.774278468959e-02       1.318729781427e+04 
       4.808088169976e-02       1.310997035408e+04 
       4.842936410232e-02       1.303223081777e+04 
       4.878904934729e-02       1.295399808637e+04 
       4.916084855550e-02       1.287517655133e+04 
       4.954578073176e-02       1.279578169321e+04 
       4.994498965325e-02       1.271573120144e+04 
       5.035976402938e-02       1.263491804639e+04 
       5.079156168005e-02       1.255332500946e+04 
       5.124203867190e-02       1.247081983188e+04 
       5.171308459725e-02       1.238731096533e+04 
       5.220686549247e-02       1.230270873655e+04 
       5.272587628721e-02       1.221679050606e+04 
       5.327300517012e-02       1.212947914869e+04 
       5.385161286438e-02       1.204055499234e+04 
       5.446563052827e-02       1.194971217488e+04 
       5.511968080349e-02       1.185674029091e+04 
       5.581922732395e-02       1.176118664816e+04 
       5.657075852001e-02       1.166261769548e+04 
       5.738201125212e-02       1.156039285093e+04 
       5.826223754178e-02       1.145372118211e+04 
       5.922251120933e-02       1.134153689369e+04 
       6.027605646616e-02       1.122239779773e+04 
       6.143855042986e-02       1.109437589427e+04 
       6.272829571713e-02       1.095481812214e+04 
